"Raman Shift [cm -1]","RD1","RD2","RD3","RD4","RD5","RD6","RD7","RD8","RD9"
"800","651.82","309.373","755.788","1547.19","2548.53","1167.77","1085.98","355.779","681.236"
"801","650.09","308.88","757.11","1545.48","2544.99","1166.12","1084.65","355.2","680.3"
"802","647.4","307.92","758.12","1542.88","2539.67","1164.01","1082.94","353.79","679.09"
"803","644.36","307.22","758.49","1539.8","2533.41","1162.51","1081.17","351.77","677.89"
"804","640.9","306.67","757.98","1536.5","2526.54","1161.32","1079.52","349.36","676.79"
"805","637.39","306.49","756.84","1533.05","2519.23","1160.37","1078.14","347.23","675.46"
"806","634.93","306.04","754.81","1529.55","2511.52","1159.91","1077.03","345.21","674.09"
"807","631.662","305.521","749.462","1522.36","2494.99","1160.6","1075.2","341.674","670.112"
"808","631.411","305.421","745.511","1518.12","2485.83","1164.51","1074.75","340.19","668.682"
"809","631.087","305.682","741.594","1513.72","2477.5","1161.18","1074.41","339.051","668.284"
"810","630.919","305.28","737.926","1509.44","2471.57","1157.52","1074.08","338.691","667.529"
"811","631.119","305.174","734.756","1505.53","2466.57","1153.66","1072.87","337.941","667.636"
"812","631.526","304.567","732.414","1502.63","2463.32","1149.2","1071.14","340.788","667.442"
"813","632.211","304.695","730.143","1501.2","2462.06","1144.36","1069.56","341.657","668.037"
"814","634.237","304.629","728.812","1500.63","2462.44","1138.87","1069.76","341.344","668.75"
"815","634.023","303.756","728.427","1501.1","2464.21","1132.8","1070.46","340.814","669.226"
"816","633.32","303.51","728.43","1501.79","2466.19","1129.13","1070.83","340.62","670.04"
"817","631.09","302.882","728.605","1504.49","2471.21","1121.32","1072.15","339.346","670.199"
"818","629.723","302.854","728.813","1505.65","2470.86","1118.27","1072.29","338.12","669.981"
"819","628.643","302.841","728.538","1505.52","2470.41","1119.16","1071.74","335.403","668.925"
"820","628.182","303.457","728.538","1504.26","2471.25","1127.52","1070.62","334.217","666.609"
"821","627.486","304.475","728.005","1502.76","2473.99","1131.78","1069.34","332.928","665.193"
"822","626.829","304.801","726.926","1501.19","2474.96","1135.22","1068.01","331.549","663.875"
"823","626.379","305.979","725.703","1499.87","2474.25","1137.98","1066.94","331.712","662.94"
"824","626.1","306.505","724.491","1499.34","2471.91","1141.32","1065.68","332.113","660.994"
"825","626.284","307.175","723.156","1499.17","2468.79","1143.33","1064.33","332.188","658.823"
"826","626.52","307.05","722.48","1499.03","2466.74","1143.8","1063.61","332.42","657.87"
"827","626.582","306.033","721.048","1498.48","2460.02","1142.71","1061.45","333.097","656.011"
"828","625.551","305.68","720.492","1498.02","2454.28","1141.18","1060.04","332.951","656.472"
"829","624.792","305.494","720.361","1497.85","2447.18","1134.29","1058.8","332.568","657.614"
"830","624.12","304.522","720.069","1497.65","2439.57","1130.01","1057.15","332.095","660.033"
"831","623.722","303.251","719.902","1497.32","2431.7","1126.34","1055.33","331.101","661.887"
"832","623.823","300.684","719.873","1496.74","2428.55","1122.5","1053.57","330.529","662.773"
"833","624.144","298.429","719.68","1496.02","2432.41","1118.66","1051.9","328.94","663.981"
"834","624.655","295.576","719.375","1494.93","2426.88","1115.5","1050.14","327.735","664.61"
"835","625.078","293.738","719.009","1493.28","2420.3","1112.81","1049.59","327.315","664.739"
"836","625.24","293.23","718.78","1492.23","2416.65","1111.84","1049.55","327.1","664.55"
"837","624.771","292.473","716.822","1488.42","2405.76","1109.99","1049.3","326.956","663.475"
"838","624.577","292.517","714.799","1484.55","2398.68","1110.51","1048.87","326.929","663.192"
"839","622.789","292.566","712.085","1477.95","2393.17","1111.45","1047.74","326.845","662.142"
"840","620.242","292.399","710.867","1473.32","2388.26","1112.73","1046.49","327.327","660.967"
"841","617.657","292.349","709.893","1470.25","2384.28","1113.67","1044.71","328.968","659.504"
"842","614.933","291.031","709.029","1467.56","2378.53","1115.17","1042.36","330.672","657.697"
"843","612.573","291.246","708.525","1464.68","2371.41","1116.32","1039.78","332.461","655.049"
"844","610.867","291.303","707.94","1461.69","2361.91","1114.77","1036.37","333.628","651.942"
"845","608.748","292.213","707.259","1458.73","2354.07","1111.75","1032.65","334.171","648.276"
"846","607.01","292.46","706.81","1457","2351.24","1109.85","1030.64","334.69","647.11"
"847","602.021","293.175","705.032","1451.41","2344.59","1103.44","1024.76","335.969","643.562"
"848","599.024","294.23","703.316","1447.3","2342.29","1099.62","1020.93","336.061","640.841"
"849","596.279","295.06","701.25","1441.33","2341.48","1094.69","1017.5","335.658","638.231"
"850","593.753","295.311","698.787","1434.84","2339.98","1089.88","1013.93","333.648","636.789"
"851","591.503","295.851","695.333","1428.89","2336.26","1085.23","1010.72","330.815","633.734"
"852","589.473","295.464","691.463","1423.66","2331.07","1080.94","1007.93","327.413","630.924"
"853","587.765","294.304","687.444","1418.86","2324.1","1076.86","1005.04","325.091","628.524"
"854","586.212","292.627","683.534","1414.4","2316.44","1072.87","1002.2","322.568","626.107"
"855","584.707","291.113","680.077","1410.35","2309.74","1068.99","999.465","321.169","625.285"
"856","584.1","290.34","678.45","1408.5","2307.07","1067.12","998.15","319.83","624.49"
"857","583.107","287.481","674.707","1403.24","2298.98","1061.58","994.286","315.655","622.728"
"858","583.798","285.612","673.241","1400.11","2293.81","1058.14","991.741","312.594","622.692"
"859","584.098","283.859","673.657","1397.42","2288.95","1054.72","989.211","310.072","622.838"
"860","583.836","282.839","675.669","1395.06","2284.35","1051.15","986.823","308.009","623.165"
"861","582.542","282.961","677.468","1392.95","2280.42","1047.77","984.499","306.208","622.38"
"862","581.037","282.532","678.703","1390.99","2276.62","1044.79","982.385","304.906","620.599"
"863","579.839","282.032","679.186","1389.02","2272.84","1042.47","980.203","303.456","618.672"
"864","579.233","281.668","679.271","1387.3","2269.06","1042.12","977.943","302.288","618.085"
"865","578.98","281.298","678.839","1384.88","2265.28","1042.34","975.508","301.453","616.391"
"866","578.932","280.477","678.179","1383.36","2261.42","1043.14","973.172","300.966","614.257"
"867","578.63","280.6","677.64","1382.76","2259.19","1043.64","971.98","300.97","612.63"
"868","575.623","280.716","675.715","1379.86","2251.92","1043.81","968.537","300.349","608.282"
"869","573.422","280.111","674.07","1375.8","2243.95","1041.89","966.427","300.342","606.049"
"870","571.329","279.572","672.38","1372.64","2235.27","1039.42","964.511","299.893","603.135"
"871","569.448","279.12","670.602","1370.39","2226.71","1036.57","963.321","301.064","599.699"
"872","567.735","278.374","669.001","1368.73","2219.21","1033.12","962.383","302.426","596.837"
"873","566.294","277.268","667.628","1367.05","2211.94","1029.63","961.869","303.495","594.895"
"874","565.109","275.905","666.486","1365.43","2205.04","1026.07","962.041","305.083","593.451"
"875","564.11","274.926","665.537","1363.58","2198.82","1022.62","962.97","306.153","591.586"
"876","563.46","274.045","664.745","1361.64","2193.29","1019.4","964.426","306.663","589.553"
"877","562.97","273.599","664.028","1359.67","2188.6","1016.58","966.435","306.557","589.659"
"878","562.75","273.94","663.42","1358.37","2186.64","1015.44","967.58","306.21","590.1"
"879","562.162","274.859","661.445","1354.32","2182.04","1012.52","969.61","303.647","591.713"
"880","561.702","275.586","659.794","1351.52","2181.33","1011.19","968.534","301.974","592.303"
"881","559.975","276.58","658.278","1348.81","2181.1","1010.29","967.449","300.66","593.148"
"882","558.8","276.786","656.772","1346.35","2180.01","1009.8","966.455","298.496","593.263"
"883","557.684","276.272","655.377","1344.77","2175.54","1009.61","965.459","296.886","592.986"
"884","557.594","275.611","654.016","1343.25","2171.24","1009.52","964.59","295.268","592.205"
"885","557.669","274.656","652.817","1341.75","2168.1","1009.67","963.696","293.665","591.532"
"886","557.587","273.784","651.648","1340.22","2166.28","1009.61","963.003","292.423","590.783"
"887","557.902","272.902","650.453","1337.16","2164.3","1009.72","962.377","291.357","590.621"
"888","558.621","272.165","649.343","1333.87","2163.28","1009.67","961.993","290.297","590.434"
"889","559.01","271.4","648.75","1333.14","2163.3","1009.47","961.88","290.27","590.57"
"890","559.563","269.83","647.418","1331.91","2165.48","1009.34","961.825","290.299","591.756"
"891","559.953","268.529","647.279","1332.42","2169.49","1011.06","962.483","290.547","593.305"
"892","560.001","267.409","647.981","1333.49","2174.08","1014.42","962.737","291.052","594.271"
"893","559.488","266.226","648.476","1335.2","2177.5","1017.45","963.711","292.322","596.056"
"894","558.736","265.257","648.958","1337.59","2181.39","1020.62","964.504","293.626","597.541"
"895","558.106","265.873","649.11","1340.11","2185.81","1023.4","965.193","294.892","599.134"
"896","557.158","267.345","649.278","1343.55","2191.09","1025.84","965.485","295.932","599.533"
"897","556.533","269.472","649.41","1347.21","2197.73","1027.89","965.264","296.628","597.148"
"898","556.315","271.946","649.462","1350.59","2205.04","1030.51","964.836","297.493","597.024"
"899","556.752","274.026","649.384","1354.12","2214.77","1032.5","963.908","298.216","599.95"
"900","558.08","276.726","649.091","1357.18","2220.62","1033.74","962.846","299.419","601.348"
"901","558.98","278.1","648.95","1358.65","2221.74","1033.82","962.26","299.58","600.75"
"902","561.896","281.368","648.406","1362.49","2222.22","1032.35","960.25","299.87","598.618"
"903","563.922","281.467","647.759","1363.01","2219.29","1029.23","958.655","299.572","595.963"
"904","566.261","281.085","646.908","1361.04","2214.06","1024.39","956.737","299.012","592.295"
"905","566.195","280.695","645.812","1355.58","2206.66","1018.23","954.73","297.708","588.955"
"906","565.179","280.2","644.029","1348.08","2196.25","1010.45","952.781","296.104","585.343"
"907","563.215","277.599","641.577","1339.04","2182.83","1002.06","950.196","294.726","581.739"
"908","561.012","273.823","638.574","1329.17","2165.98","993.932","947.218","293.721","577.917"
"909","558.333","269.76","635.356","1318.67","2145.26","986.226","943.182","291.873","573.573"
"910","555.404","264.735","631.888","1308.09","2131.41","978.805","938.393","289.587","570.55"
"911","552.402","261.567","628.518","1298.7","2117.1","972.095","926.703","287.143","568.08"
"912","548.506","258.324","624.44","1289.15","2103.44","966.098","920.703","284.343","565.892"
"913","546.58","256.96","622.44","1284.82","2096.99","963.39","918.04","283.27","564.9"
"914","540.903","253.352","616.375","1273.17","2079.35","955.77","910.476","280.232","561.933"
"915","537.236","251.626","612.446","1267.38","2069.29","952.002","905.855","277.955","559.533"
"916","533.18","249.308","608.828","1262.85","2060.72","949.681","901.856","276.292","556.737"
"917","529.591","247.793","605.715","1259.31","2055.27","948.378","898.318","275.053","553.724"
"918","526.747","246.708","603.541","1256.37","2050.75","947.447","895.067","274.535","550.429"
"919","524.374","245.753","601.504","1255.96","2044.36","946.752","892.744","273.922","548.045"
"920","522.375","245.878","599.864","1256.1","2038.48","945.592","891.316","273.836","547.628"
"921","521.572","246.301","598.726","1255.19","2032.66","944.44","891.06","273.837","546.533"
"922","519.731","246.63","597.772","1253.52","2027.74","943.052","891.983","273.384","544.682"
"923","517.875","247.219","597.005","1250.46","2023.56","941.402","893.033","273.19","543.274"
"924","516.368","248.053","596.327","1246.91","2019.95","939.507","893.635","272.66","540.829"
"925","515.96","247.96","595.98","1244.59","2018.37","938.55","894.13","272.2","539.6"
"926","515.32","247.957","594.871","1238.18","2013.72","935.581","892.518","271.345","536.076"
"927","515.154","247.614","593.78","1235.67","2010.9","933.533","890.536","270.523","534.905"
"928","515.036","247.863","592.646","1233.19","2008.1","931.441","888.567","269.196","534.522"
"929","514.713","247.493","591.407","1230.5","2005.94","929.359","886.631","268.011","533.46"
"930","514.183","246.678","590.125","1227.77","2004.11","927.197","884.6","266.729","533.008"
"931","513.648","245.497","588.906","1225.14","2003.23","925.176","880.925","266.139","533.531"
"932","512.911","243.703","587.731","1221.57","2001.68","923.169","877.426","265.14","533.824"
"933","512.177","241.451","586.615","1218.86","1998.76","921.072","874.065","264.419","533.227"
"934","511.22","239.146","585.654","1217.29","1993.86","919.119","871.575","263.081","531.385"
"935","510.146","236.591","585.419","1217.48","1987.71","917.278","869.84","262.007","530.386"
"936","508.783","235.276","585.2","1218.58","1979.17","914.899","868.494","261.187","529.186"
"937","506.804","234.782","584.976","1218.83","1968.9","912.468","867.479","260.752","527.203"
"938","504.95","234.83","584.66","1218.64","1965.4","911.23","867.16","260.35","526.28"
"939","501.487","235.701","582.21","1216.7","1958.6","907.378","866.475","259.68","524.991"
"940","500.275","237.347","578.774","1213.44","1956.75","904.881","866.107","259.421","524.73"
"941","499.411","239.047","574.665","1209.4","1955.81","902.424","864.746","259.467","523.903"
"942","498.636","239.528","568.105","1205.12","1955.85","900.172","864.006","260.104","522.676"
"943","498.217","239.492","567.032","1201.42","1955.44","897.886","864.624","261.111","522.126"
"944","497.994","237.972","566.587","1199.28","1954.58","895.683","864.18","260.791","520.847"
"945","497.934","236.976","566.576","1196.8","1951.69","893.533","862.593","260.543","520.24"
"946","498.216","235.856","567.161","1193.55","1942.55","891.425","858.91","260.212","519.059"
"947","498.65","234.918","568.851","1190.26","1935.95","889.389","855.013","259.617","518.19"
"948","499.114","234.587","571.353","1187.54","1930.64","887.282","851.161","259.275","516.585"
"949","499.722","233.738","574.434","1185.92","1926.7","885.147","847.476","259.544","515.519"
"950","500.41","232.823","574.011","1184.9","1923.48","883.133","844.597","258.853","514.876"
"951","500.5","232.45","573.13","1184.62","1922.35","882.04","843.33","258.79","514.31"
"952","500.358","231.266","567.791","1183.53","1919.11","878.944","840.012","258.036","511.945"
"953","498.586","230.429","564.49","1182.55","1917.74","877.675","838.39","257.852","509.031"
"954","496.987","227.623","562.477","1182.35","1916.83","878.287","837.214","257.92","507.208"
"955","495.605","227.466","561.606","1182.92","1919.12","879.459","836.756","258.174","506.905"
"956","495.616","227.741","561.247","1184.46","1921.98","881.243","836.917","258.495","507.148"
"957","495.677","228.451","562.469","1186.4","1925.07","883.541","837.901","258.837","507.409"
"958","494.573","229.851","560.557","1188.75","1929.15","886.471","839.333","259.184","508.436"
"959","493.087","231.736","560.624","1191.69","1934.28","889.861","841.964","260.212","509.883"
"960","492.024","233.481","561.795","1195.32","1939.59","893.856","844.809","261.29","510.222"
"961","492.132","235.039","564.102","1199.46","1945.65","898.688","849.083","262.962","511.663"
"962","493.383","236.183","566.58","1204.13","1951.66","903.807","853.428","265.007","513.761"
"963","494.949","237.442","570.086","1209.38","1956.68","909.491","857.519","265.952","516.538"
"964","497.059","238.779","573.928","1214.65","1960.95","915.184","861.208","266.07","518.497"
"965","498.18","239.38","576.78","1216.49","1961.81","917.54","862.46","266.43","519.56"
"966","502.185","240.758","583.855","1220.9","1963.96","923.78","865.978","266.916","521.622"
"967","505.636","241.231","586.965","1222.61","1965.36","926.264","867.301","267.156","523.414"
"968","508.821","241.33","589.203","1224.18","1968.72","927.231","868.237","267.446","524.675"
"969","510.253","240.67","590.394","1226.71","1970.95","926.798","868.638","268.311","526.322"
"970","510.545","240.241","590.689","1226.53","1971.77","924.445","868.31","267.691","527.346"
"971","509.371","239.993","590.268","1224.24","1970.39","921.323","867.539","266.946","526.737"
"972","507.734","239.957","589.224","1220.33","1966.61","918.016","866.218","265.775","525.888"
"973","506.421","240.097","587.427","1216.59","1962.31","915.749","864.048","264.943","524.542"
"974","504.765","240.342","585.327","1213.45","1957.81","913.585","861.316","263.669","521.946"
"975","503.07","240.655","583.17","1210.94","1953.57","911.615","858.86","259.641","520.567"
"976","501.52","240.556","580.971","1209.21","1949.98","909.832","856.316","259.085","519.067"
"977","500.236","241.109","579.615","1208","1947.19","908.246","855.325","259.239","517.302"
"978","499.055","242.366","578.842","1207.46","1945.25","906.701","855.112","259.793","514.575"
"979","498.116","242.594","578.752","1207.59","1943.57","905.413","855.333","261.494","513.004"
"980","497.75","242.4","578.92","1207.78","1943","904.85","855.49","262.25","513.19"
"981","497.05","241.923","579.619","1208.31","1941.31","904.042","855.853","264.538","513.273"
"982","496.856","241.005","580.104","1207.2","1940.36","903.648","855.652","265.811","512.524"
"983","496.672","239.779","579.961","1204.93","1939.43","902.662","855.165","266.399","510.944"
"984","496.5","238.436","579.703","1201.51","1937.74","898.706","854.373","266.359","513.187"
"985","496.325","236.91","578.865","1197.48","1934.97","893.712","851.437","265.943","514.783"
"986","495.784","234.879","576.488","1191.93","1930.08","887.732","848.162","261.345","514.695"
"987","494.537","232.755","571.81","1185.09","1924.84","881.096","845.769","259.037","513.694"
"988","492.95","230.706","567.142","1177.06","1916.72","873.324","843.799","256.161","510.659"
"989","491.05","229.091","562.91","1168.07","1904.53","865.664","840.489","253.612","506.121"
"990","489.062","227.787","558.952","1157.8","1890.52","858.277","835.983","250.914","500.355"
"991","485.168","226.742","554.564","1147.78","1873.22","851.231","830.321","248.098","492.424"
"992","481.457","226.033","550.198","1138.52","1856.6","845.202","823.999","244.895","491.905"
"993","477.541","225.672","545.98","1131.12","1839.39","839.655","817.263","241.934","487.521"
"994","473.854","225.18","542.398","1124.73","1822.65","834.402","810.109","239.346","482.641"
"995","472.13","225.08","540.74","1122.24","1814.52","831.92","806.56","238.2","480.02"
"996","467.393","223.731","536.427","1115.29","1790.61","824.569","796.538","235.604","471.839"
"997","465.352","222.861","534.637","1111.18","1775.97","820.255","790.424","234.984","466.435"
"998","463.761","221.863","532.581","1106.95","1761.72","816.208","784.804","234.292","461.184"
"999","462.402","220.685","530.27","1102.48","1748.26","812.577","779.815","234.322","457.702"
"1000","461.141","219.965","527.171","1098.25","1736.42","808.526","775.434","234.076","453.929"
"1001","459.755","218.975","523.842","1094.07","1727.81","804.506","771.906","234.16","450.251"
"1002","457.716","217.966","520.248","1089.79","1721.72","800.398","769.035","234.278","449.658"
"1003","454.962","216.69","516.934","1085.41","1717.62","796.257","766.779","234.826","448.383"
"1004","452.247","214.441","514.287","1080.92","1714.81","791.991","764.861","234.809","446.959"
"1005","449.683","211.824","512.547","1076.12","1712.33","788.038","763.187","234.199","446.079"
"1006","447.325","209.624","511.235","1071.26","1710.06","784.253","761.633","233.458","445.117"
"1007","445.053","208.761","510.202","1065.96","1708.24","781.001","759.784","232.77","444.375"
"1008","443.479","207.809","509.216","1060.48","1706.36","777.51","758.073","232.323","443.54"
"1009","442.882","207.544","508.246","1054.7","1704.6","774.358","756.074","232.546","443.032"
"1010","441.212","207.586","507.053","1048.31","1702.75","771.505","753.882","231.698","443.548"
"1011","440.18","207.41","506.4","1045.26","1701.64","770.64","752.69","231.06","443.89"
"1012","437.256","206.911","504.417","1036.86","1698.15","769.865","749.071","229.462","445.401"
"1013","436.015","206.878","503.126","1034.15","1694.86","770.169","746.747","229.578","446.183"
"1014","435.724","206.529","501.383","1031.27","1689.57","771.064","744.736","229.007","446.316"
"1015","435.702","206.448","499.855","1029.41","1682.47","772.539","743.244","228.714","446.315"
"1016","436.027","207.008","498.208","1029.24","1681.04","774","742.655","228.841","446.632"
"1017","435.194","207.758","496.698","1031.84","1681.31","776.075","742.954","229.728","446.602"
"1018","434.546","208.394","495.446","1036.23","1682.9","778.59","743.655","230.145","446.693"
"1019","434.026","208.933","494.52","1039.13","1685.27","781.127","745.105","230.6","446.163"
"1020","434.081","209.697","494.39","1043.2","1688.45","783.754","747.045","231.191","445.737"
"1021","434.642","210.381","495.115","1048.47","1692.17","786.149","749.313","231.353","445.949"
"1022","435.961","210.719","496.483","1053.68","1695.74","788.008","751.678","231.464","446.748"
"1023","438.164","211.211","498.423","1057.94","1699.77","790.207","754","231.789","446.535"
"1024","440.415","211.099","501.331","1061.37","1703","791.965","756.03","232.368","446.068"
"1025","438.693","210.488","504.422","1063.33","1705.31","793.147","757.687","231.745","445.514"
"1026","436.857","209.404","507.723","1064.79","1706.49","793.444","758.736","230.877","444.798"
"1027","434.837","208.277","510.315","1063.82","1706.42","792.867","758.172","230.067","443.08"
"1028","434.39","207.57","510.82","1062.44","1705.62","791.23","756.76","229.86","442.03"
"1029","432.999","205.328","510.791","1057.16","1701.62","785.902","752.378","228.89","438.926"
"1030","431.824","204.528","506.248","1052.27","1697.12","781.809","749.556","228.086","437.157"
"1031","429.571","203.474","505.713","1045.9","1691.23","777.587","747.067","227.333","435.563"
"1032","426.948","201.91","504.873","1038.39","1684.18","773.815","745.262","226.429","434.646"
"1033","424.353","201.016","503.158","1029.46","1675.52","769.724","743.314","225.795","433.171"
"1034","421.898","200.656","500.271","1019.56","1666.29","765.635","741.521","224.487","432.484"
"1035","419.705","200.482","495.119","1011.92","1657.22","761.385","740.23","223.361","431.606"
"1036","417.904","200.258","492.06","1006.54","1647.91","757.586","737.787","222.747","431.881"
"1037","416.527","200.036","489.514","1003.31","1639.87","754.608","735.894","222.277","432.811"
"1038","415.456","199.888","487.683","1000.5","1632.85","753.357","734.556","221.764","433.72"
"1039","414.621","199.887","486.337","1000.65","1627.46","753.255","733.702","221.768","433.912"
"1040","413.869","199.931","485.602","1002.68","1623.63","754.213","733.571","221.824","434.185"
"1041","413.316","200.261","485.379","1006.13","1622.58","755.797","733.663","221.595","433.239"
"1042","413.452","200.496","485.608","1010.18","1622.49","757.965","733.831","221.82","432.149"
"1043","414.529","200.919","485.955","1015.18","1623.29","760.286","734.016","222.027","431.851"
"1044","415.563","201.224","486.563","1018.8","1624.03","762.675","733.991","221.656","432.193"
"1045","416.492","202.217","487.572","1021.82","1624.98","764.851","733.758","220.789","432.705"
"1046","417.007","203.01","488.477","1024.08","1626.37","766.569","733.288","220.725","431.245"
"1047","417.13","203.5","489.07","1024.71","1627.3","767.29","732.95","220.33","430.66"
"1048","417.247","204.45","490.689","1025.64","1630.3","768.844","731.526","218.865","429.359"
"1049","416.834","205.846","491.331","1024.76","1634.01","769.107","730.302","217.536","429.381"
"1050","416.013","211.335","491.481","1023.02","1633.67","768.796","728.949","216.466","429.261"
"1051","414.641","209.073","490.988","1019.25","1631.8","767.169","727.51","215.521","429.96"
"1052","412.805","205.737","489.347","1014.22","1626.49","763.395","726.041","214.528","429.774"
"1053","410.894","202.603","487.187","1008.58","1619.19","758.706","724.347","213.913","430.209"
"1054","409.153","198.816","484.429","1003.33","1610.33","753.72","723.003","212.658","430.317"
"1055","409.797","196.586","481.104","998.171","1600.92","748.778","722.095","212.293","429.776"
"1056","410.486","195.982","476.318","993.066","1591.64","743.877","721.04","212.68","430.108"
"1057","411.109","197.579","473.712","988.125","1581.47","739.421","719.886","212.976","429.261"
"1058","410.96","198.32","472.002","983.414","1571.9","735.29","718.928","212.871","427.259"
"1059","410.445","198.655","471.019","979.096","1563.3","731.481","716.929","212.886","424.214"
"1060","409.051","198.455","470.237","975.155","1555.74","727.103","713.729","212.476","421.227"
"1061","407.476","196.254","469.826","971.621","1549.44","722.849","710.566","211.966","418.694"
"1062","405.753","193.341","469.308","968.915","1544.25","718.89","707.209","211.67","416.937"
"1063","404.021","193.633","469.527","966.885","1539.93","715.31","703.961","211.376","415.163"
"1064","402.287","192.479","469.689","964.536","1536.58","712.379","701.114","211.004","413.87"
"1065","400.878","191.536","469.657","962.227","1534.38","710.924","699.499","210.952","412.248"
"1066","399.545","190.594","469.048","959.776","1533.22","710.201","698.136","210.762","410.045"
"1067","398.96","189.93","468.88","958.62","1533.09","710.35","697.68","210.26","409.41"
"1068","397.249","188.031","468.653","955.43","1532.59","711.435","696.521","209.44","407.968"
"1069","396.252","187.126","465.822","953.56","1531.52","712.721","693.047","208.751","407.209"
"1070","395.345","186.521","462.667","951.898","1530.65","714.414","690.762","208.556","406.364"
"1071","394.567","186.202","459.391","950.447","1530.81","715.788","690.08","208.098","405.632"
"1072","393.983","186.501","456.052","949.178","1532.21","717.024","690.499","207.576","405.609"
"1073","393.533","186.87","454.196","948.181","1532.81","717.872","691.205","207.271","406.106"
"1074","393.133","187.538","452.702","947.156","1533.27","718.421","692.615","206.634","405.673"
"1075","393.179","187.816","451.949","946.462","1533.47","718.655","694.215","206.491","404.847"
"1076","393.379","188.281","451.558","946.472","1533.46","718.546","694.325","206.008","404.415"
"1077","393.652","189.167","451.727","946.928","1533.79","718.173","694.23","205.666","403.636"
"1078","394.168","190.402","452.25","949.22","1534.12","716.441","693.706","205.894","402.586"
"1079","394.313","191.236","453.053","950.267","1534.48","714.374","692.732","206.632","402.055"
"1080","393.697","192.163","454.167","950.725","1534.77","712.38","691.862","206.845","401.547"
"1081","393.124","193.046","455.213","951.768","1535.02","710.85","690.967","207.565","401.444"
"1082","392.54","193.97","456.461","954.096","1535.1","711.381","690.431","209.172","402.041"
"1083","391.894","194.322","457.748","955.907","1535.1","712.006","690.405","210.426","402.554"
"1084","391.309","194.692","458.969","957.559","1535.38","713.087","690.512","211.063","403.647"
"1085","390.779","194.672","460.062","958.539","1535.6","714.55","690.471","210.693","404.765"
"1086","390.22","194.042","461.012","959.215","1535.45","715.897","690.286","209.384","405.164"
"1087","390.437","193.433","461.931","959.39","1534.5","717.112","689.869","208.421","405.957"
"1088","390.542","193.288","462.724","958.924","1531.78","718.089","689.206","208.014","406.905"
"1089","390.71","193.11","462.98","958.36","1529.16","718.29","688.78","207.31","406.75"
"1090","390.874","193.068","463.461","955.601","1522.67","718.148","687.327","206.241","406.134"
"1091","390.759","193.263","463.627","952.518","1519.67","716.622","686.031","205.254","404.906"
"1092","389.952","192.947","462.846","948.536","1516.39","713.683","683.564","204.609","403.213"
"1093","388.766","192.133","461.121","943.718","1512.82","708.167","681.489","204.254","401.937"
"1094","387.386","191.312","458.987","938.623","1508.79","704.197","679.254","203.69","400.14"
"1095","385.85","190.412","456.482","934.288","1504.27","700.031","677.17","202.862","398.081"
"1096","384.197","189.055","453.745","931.342","1499.62","696.181","675.007","201.946","395.42"
"1097","382.294","187.997","451.032","928.187","1494.48","692.406","672.647","201.345","392.684"
"1098","380.421","186.542","448.805","925.009","1488.32","689.122","668.484","200.802","389.658"
"1099","378.921","185.576","446.363","920.273","1482.21","686.294","664.849","200.56","386.961"
"1100","377.915","184.506","443.831","917.122","1476.44","684.069","661.9","200.436","384.337"
"1101","377.415","183.796","441.222","915.611","1472.05","682.612","659.724","200.692","381.719"
"1102","377.24","183.393","438.847","914.832","1468.5","681.752","658.353","201.024","379.741"
"1103","377.244","182.694","436.747","914.452","1465.74","681.298","657.823","201.237","378.71"
"1104","377.817","181.523","434.86","914.776","1464.16","681.473","658.183","201.071","377.442"
"1105","378.654","180.421","434.132","915.955","1463.28","682.268","659.409","201.529","376.754"
"1106","379.834","179.787","435.556","915.058","1463.51","683.761","661.496","202.226","375.9"
"1107","381.319","179.842","439.854","918.997","1465.08","685.882","663.309","203.976","375.723"
"1108","383","180.497","442.588","923.651","1468.36","688.703","664.294","205.149","375.216"
"1109","384.883","181.429","445.731","929.083","1473.81","692.298","665.838","205.866","376.123"
"1110","386.975","182.786","449.009","933.962","1480.76","696.674","668.061","207.036","379.324"
"1111","389.039","183.915","452.479","939.403","1489.67","701.792","670.653","207.919","383.852"
"1112","391.311","185.56","456.413","947.389","1499.98","707.724","673.901","209.1","389.129"
"1113","393.319","187.088","461.417","956.94","1511.76","714.481","677.625","210.129","395.149"
"1114","395.759","189.284","466.569","966.156","1523.35","723.068","682.293","211.239","403.877"
"1115","398.894","191.459","470.585","976.442","1537.07","733.41","687.292","212.254","414.11"
"1116","400.81","192.28","472.75","981.3","1543.7","738.68","689.92","212.54","419.28"
"1117","406.444","195.401","479.79","995.444","1561.35","753.889","697.68","213.085","434.932"
"1118","409.275","196.795","483.126","1003.2","1571.12","762.724","702.922","213.883","436.378"
"1119","411.479","197.768","484.302","1008.58","1580.36","770.591","707.2","214.82","430.936"
"1120","413.296","199.028","484.765","1011.35","1588.31","774.242","711.143","215.617","423.456"
"1121","413.868","200.297","483.51","1012.11","1594.42","770.32","714.19","216.874","409.541"
"1122","415.387","200.92","483.198","1011.38","1599.35","771.043","716.913","218.099","417.125"
"1123","417.334","201.006","482.374","1006.48","1606.11","764.587","719.597","220.138","413.229"
"1124","419.064","200.675","484.327","1002.06","1613.03","766.63","722.386","222.506","418.819"
"1125","420.913","201.37","483.197","1012.86","1620.5","764.6","725.322","225.313","429.492"
"1126","423.433","201.364","486.992","1023.71","1626.89","770.333","729.612","227.769","436.29"
"1127","427.323","202.78","491.608","1040.48","1640.89","780.413","735.312","230.366","447.741"
"1128","431.824","204.865","496.693","1061.37","1655.16","790.703","740.359","231.997","454.128"
"1129","435.721","206.882","513.539","1074.27","1674.17","799.766","744.883","232.183","454.322"
"1130","437.982","209.644","517.388","1088.76","1692.69","810.488","748.455","233.086","461.141"
"1131","439.077","210.886","522.093","1093.35","1707.84","816.573","750.963","232.964","459.283"
"1132","438.947","211.998","522.477","1087.08","1718.4","816.066","752.806","232.064","457.593"
"1133","437.449","211.177","520.602","1074.11","1712.19","810.286","753.176","229.867","450.837"
"1134","435.026","209.652","516.621","1055.55","1693.77","797.273","748.914","226.352","445.963"
"1135","431.462","207.34","510.564","1034","1661.5","783.504","740.056","221.545","438.964"
"1136","426.943","199.402","496.973","1010.76","1626.96","767.741","728.364","216.836","431.749"
"1137","421.074","194.582","487.303","985.779","1588.79","751.299","716.045","212.182","423.784"
"1138","414.339","190.639","477.055","962.959","1550.4","735.324","701.63","207.694","415.701"
"1139","406.912","188.023","466.831","943.48","1515.06","720.756","687.252","203.342","406.687"
"1140","399.944","185.773","455.728","925.025","1484.29","707.855","673.419","199.03","397.849"
"1141","392.884","182.979","445.697","923.542","1460.22","696.611","660.208","195.766","389.734"
"1142","385.743","180.422","436.731","915.48","1443.19","687.314","647.394","193.15","384.725"
"1143","379.457","178.369","430.102","907.783","1431.32","684.081","646.922","191.033","381.313"
"1144","374.221","176.791","425.095","902.027","1421.92","679.222","646.178","190.267","376.004"
"1145","370.525","176.791","421.435","898.264","1418.65","677.334","644.692","190.898","375.438"
"1146","368.654","176.106","419.443","896.585","1418.18","676.363","644.63","192.324","380.454"
"1147","368.227","176.105","418.929","897.019","1419.18","677.155","645.404","193.938","383.329"
"1148","368.69","177.12","419.42","898.19","1421.05","678.15","645.94","194.71","384.66"
"1149","371.185","178.695","422.212","903.551","1429.07","681.931","648.532","198.302","389.471"
"1150","373.784","179.62","425.441","909.552","1437.59","685.371","651.2","200.789","388.564"
"1151","376.607","180.871","429.315","917.306","1448.17","689.782","654.21","203.454","380.133"
"1152","379.719","181.87","434.249","926.223","1460.51","694.718","657.345","205.897","381.989"
"1153","382.998","182.689","439.504","933.923","1472.33","699.668","660.674","207.172","384.574"
"1154","386.389","183.497","444.993","940.904","1479.79","704.692","663.536","208.04","387.419"
"1155","389.761","184.184","450.029","946.75","1488.22","709.321","666.2","209.007","390.732"
"1156","393.437","185.358","454.279","951.193","1497.63","714.134","668.26","208.878","393.017"
"1157","396.755","186.029","456.963","955.296","1508.8","719.208","669.458","208.952","396.025"
"1158","399.733","186.844","458.365","964.78","1515.16","723.781","670.31","208.69","397.937"
"1159","401.159","187.404","458.188","966.321","1518.29","727.502","670.307","207.77","398.713"
"1160","401.882","187.433","456.974","965.365","1518.1","729.369","669.627","206.251","399.588"
"1161","401.249","186.879","454.631","961.138","1514.69","729.489","668.343","204.09","399.763"
"1162","399.521","186.431","451.497","953.487","1507.97","727.834","666.408","201.956","398.469"
"1163","397.259","185.552","447.212","947.302","1497.85","710.405","663.984","199.864","395.439"
"1164","395.717","184.745","442.349","939.273","1484.94","704.118","660.895","197.768","391.42"
"1165","392.868","183.17","437.418","929.105","1469.37","697.693","657.013","195.319","385.725"
"1166","389.006","181.371","432.277","918.433","1451.2","690.919","652.689","192.542","380.556"
"1167","383.569","179.093","427.298","907.672","1432.45","683.696","647.381","189.504","373.031"
"1168","375.817","176.321","422.646","897.155","1413.76","676.773","641.886","186.603","367.827"
"1169","369.621","173.9","418.601","887.103","1397.04","668.946","636.323","184.546","363.158"
"1170","363.574","172.108","415.156","877.469","1381.1","661.351","630.411","182.215","358.352"
"1171","358.865","170.925","412.192","868.499","1366.59","654.016","624.703","180.114","354.631"
"1172","355.735","169.78","409.619","860.091","1354.69","647.429","619.81","178.012","354.405"
"1173","355.896","168.926","407.679","852.599","1345.13","641.204","615.76","176.146","351.805"
"1174","353.772","169.292","406.217","845.687","1343.43","636.712","612.332","175.217","349.037"
"1175","351.984","169.732","405.104","839.697","1337.42","633.573","609.742","174.98","347.075"
"1176","350.47","170.893","404.2","834.292","1333.86","630.566","608.057","174.286","346.185"
"1177","349.265","171.787","403.823","830.236","1331.7","628.085","606.965","174.657","345.39"
"1178","348.102","172.885","401.333","828.712","1331.05","626.315","606.357","175.112","345.613"
"1179","344.175","173.365","399.004","824.493","1331.48","624.914","606.073","175.755","346.339"
"1180","343.711","173.614","398.06","824.36","1332.81","624.141","607.108","177.472","346.49"
"1181","343.883","173.798","397.191","825.643","1335.01","624.24","608.883","178.253","347.31"
"1182","344.352","173.3","400.933","827.674","1337.49","625.43","610.471","178.341","348.167"
"1183","344.834","172.767","406.269","830.851","1339.88","627.741","611.615","179.081","349.671"
"1184","345.626","171.8","409.341","835.741","1341.99","631.139","613.069","180.279","351.23"
"1185","346.562","170.395","409.813","841.417","1343.71","634.754","614.067","180.776","352.6"
"1186","347.614","168.433","410.389","847.445","1344.79","638.415","615.453","181.491","352.867"
"1187","348.758","166.708","410.713","852.916","1345.56","640.856","616.773","182.428","353.42"
"1188","349.798","165.527","409.837","858.213","1345.16","641.54","617.887","182.934","353.642"
"1189","350.829","164.896","407.119","863.221","1344.48","641.27","618.599","183.426","353.945"
"1190","351.704","164.151","407.666","867.494","1343.96","640.384","617.892","183.048","353.433"
"1191","352.451","164.358","409.047","864.137","1344.12","639.066","616.608","182.45","352.555"
"1192","353.076","164.648","408.189","864.558","1344.69","637.473","615.058","181.584","352.086"
"1193","353.454","165.265","407.246","864.849","1345.43","636.207","614.526","181.063","352.197"
"1194","353.596","166.261","406.229","864.418","1346.35","634.916","613.47","180.224","352.204"
"1195","353.598","167.13","405.21","863.544","1347.57","633.185","612.107","179.708","352.896"
"1196","353.32","168.359","404.128","861.851","1348.83","631.339","610.837","179.317","353.57"
"1197","353.09","169.01","403.76","860.78","1349.98","630.49","610.14","179.68","354.18"
"1198","352.249","170.676","402.32","856.862","1352.97","628.045","608.273","179.677","356.18"
"1199","351.484","171.224","401.022","853.699","1353.95","626.621","607.019","178.983","356.984"
"1200","350.559","171.83","399.597","850.307","1353.22","625.309","605.736","178.014","357.336"
"1201","349.513","171.843","398.012","846.381","1350.95","624.566","604.38","178.17","356.477"
"1202","348.41","171.92","396.03","841.251","1347.22","623.637","602.945","178.103","354.618"
"1203","346.697","171.322","393.948","835.338","1342.1","622.392","601.455","177.465","352.459"
"1204","344.839","170.255","391.755","829.094","1335.51","620.451","599.834","176.576","349.727"
"1205","342.834","168.778","389.53","822.309","1327.15","617.003","594.953","175.423","346.842"
"1206","340.737","167.457","387.252","814.996","1317.18","612.766","590.46","174.294","343.246"
"1207","338.576","165.696","384.866","806.245","1305.7","607.786","586.34","173.104","339.048"
"1208","336.339","164.125","382.34","799.638","1293.02","602.244","582.423","171.069","334.535"
"1209","334.095","162.827","379.747","793.361","1279.45","595.486","578.757","169.346","329.77"
"1210","331.944","161.668","377.315","786.627","1266.87","588.678","575.311","167.345","325.048"
"1211","330.286","160.48","375.085","780.374","1254.75","582.568","572.112","164.936","320.89"
"1212","328.366","159.196","372.888","775.198","1243.32","578.113","569.13","163.054","317.287"
"1213","326.549","158","370.818","771.828","1233.41","574.119","566.389","161.66","313.82"
"1214","324.372","157.169","368.962","769.666","1224.32","570.811","563.857","160.69","311.217"
"1215","322.216","156.194","367.323","767.152","1216.08","568.282","561.521","160.498","309.704"
"1216","320.104","155.917","365.681","765.47","1209.03","566.932","559.428","160.4","307.646"
"1217","317.971","156.084","363.961","764.155","1203.13","566.066","557.624","159.84","306.394"
"1218","315.984","155.917","362.286","765.077","1197.77","564.941","556.01","159.353","305.843"
"1219","314.101","155.692","360.632","763.538","1192.97","563.101","554.552","159.342","305.027"
"1220","312.297","155.828","359.067","761.497","1188.62","561.409","552.898","159.181","304.382"
"1221","310.647","155.981","357.842","759.091","1184.03","559.674","550.084","159.196","304.063"
"1222","309.143","155.549","356.883","756.119","1180.06","558.338","547.143","159.352","304.372"
"1223","308.036","155.257","356.26","752.584","1176.14","557.128","544.389","159.158","304.234"
"1224","306.969","154.584","355.71","748.584","1172.67","556.313","541.809","159.245","305.179"
"1225","306.007","153.729","355.159","743.417","1168.92","555.529","539.586","159.359","306.109"
"1226","305.159","152.702","354.261","740.858","1165.41","554.94","538.01","160.099","307.716"
"1227","304.468","151.089","353.312","737.874","1162.42","554.169","536.837","160.746","309.14"
"1228","303.96","149.986","352.321","735.7","1160.22","553.512","536.5","161.532","310.911"
"1229","303.41","148.591","351.201","734.602","1159.13","552.761","536.583","162.521","311.67"
"1230","302.981","147.964","350.495","734.932","1160.82","552.705","537.067","163.056","311.466"
"1231","302.719","147.583","350.226","737.032","1162.96","553.488","537.93","163.444","310.894"
"1232","302.547","147.209","350.375","740.534","1165.57","556.798","539.099","163.89","309.015"
"1233","302.559","146.91","351.124","746.008","1168.67","558.507","540.487","165.121","307.868"
"1234","302.829","146.98","352.042","750.572","1170.92","559.759","541.996","165.271","306.822"
"1235","303.192","146.886","353.001","753.93","1172.61","560.215","543.626","165.413","306.46"
"1236","304.015","146.882","353.849","755.958","1173.68","560.172","543.064","165.065","306.044"
"1237","305.544","146.592","354.509","756.719","1173.75","559.416","541.561","165.094","304.974"
"1238","307.114","146.813","354.292","756.448","1172.4","557.901","539.801","163.848","303.647"
"1239","308.663","147.407","354.088","755.2","1169.57","555.897","537.375","161.88","302.339"
"1240","310.026","147.447","353.419","750.76","1165.81","553.438","534.672","159.791","301.198"
"1241","310.714","147.393","352.433","747.425","1161.12","550.538","532.003","157.692","299.932"
"1242","310.797","146.868","351.284","743.593","1155.96","547.342","530.026","157.163","298.038"
"1243","310.579","146.682","349.967","739.373","1150.41","543.882","530.067","156.975","296.481"
"1244","309.998","146.087","348.495","734.389","1144.93","539.229","529.4","156.891","295.511"
"1245","309.114","145.096","347.236","727.707","1140.07","534.526","528.345","157.368","294.427"
"1246","307.141","143.585","345.322","721.368","1136.32","530.044","524.715","158.173","294.099"
"1247","305.107","142.713","343.294","716.863","1133.89","526.109","523.517","159.159","293.501"
"1248","303.49","141.905","341.343","713.383","1132.65","523.586","526.218","159.972","292.964"
"1249","302.434","141.666","339.945","710.973","1132.43","522.007","526.201","160.692","291.813"
"1250","301.687","142.417","340.018","710.264","1133.04","521.476","526.382","159.061","291.331"
"1251","301.113","142.758","340.656","710.701","1133.98","522.085","526.857","158.237","290.205"
"1252","300.54","143.129","341.992","712.272","1135.88","524.009","528.165","158.151","290.791"
"1253","300.703","143.634","344.086","714.865","1139.48","527.207","529.687","158.229","291.085"
"1254","301.261","143.917","346.526","717.503","1146.37","531.465","531.621","158.645","293.101"
"1255","302.035","144.207","349.3","721.516","1155.29","535.865","533.895","159.124","295.975"
"1256","302.999","144.525","351.882","725.923","1162.62","539.655","536.229","159.715","299.224"
"1257","303.908","145.402","353.898","730.604","1169.23","542.935","538.531","160.587","302.253"
"1258","304.533","146.207","355.548","734.198","1173.33","545.329","540.929","161.509","303.696"
"1259","304.893","146.903","356.658","737.607","1175.98","546.931","542.803","162.112","305.186"
"1260","305.063","147.123","357.108","740.481","1177.17","547.698","544.183","162.733","305.149"
"1261","305.174","147.439","356.773","741.735","1178.82","547.559","544.776","163.349","303.727"
"1262","304.153","147.061","356.045","741.154","1176.93","546.241","543.858","163.482","301.182"
"1263","302.822","146.629","354.582","739.061","1171.32","543.704","541.666","163.139","300.218"
"1264","300.986","145.712","352.66","735.173","1163.07","539.554","538.83","162.911","298.659"
"1265","298.511","145.341","350.033","729.526","1152.54","535.01","535.262","162.367","296.898"
"1266","295.402","145.556","346.852","722.635","1139.26","528.845","531.343","161.364","294.893"
"1267","292.267","146.029","343.524","715.734","1123.58","522.971","527.167","160.156","293.152"
"1268","289.208","146.452","340.178","709.321","1106.14","517.613","522.534","158.395","291.525"
"1269","286.673","146.653","337.324","703.63","1095.5","513.851","517.915","156.751","289.822"
"1270","284.776","146.229","334.724","697.975","1086.37","511.345","513.768","154.997","289.252"
"1271","283.35","145.801","332.725","692.952","1078.43","509.67","510.266","153.736","288.464"
"1272","282.38","145.224","330.931","689.405","1072.52","509.146","507.663","152.106","287.99"
"1273","281.949","144.11","329.32","686.753","1068.49","509.537","506.385","151.295","287.665"
"1274","281.86","143.796","327.885","684.93","1065.67","510.545","505.991","150.602","287.227"
"1275","282.108","143.214","326.771","684.27","1066.03","512.511","506.464","149.896","286.488"
"1276","283.037","142.9","326.072","684.436","1079.37","514.405","506.191","149.425","286.179"
"1277","284.069","142.816","325.554","685.2","1082.84","515.76","507.078","148.927","284.805"
"1278","285.038","142.301","325.259","685.81","1085.84","516.055","507.984","148.801","283.271"
"1279","285.529","142.187","325.157","687.157","1088.79","515.671","508.529","148.63","282.602"
"1280","285.489","141.62","325.166","688.118","1091.09","514.302","508.716","148.112","282.044"
"1281","285.242","141.335","325.356","688.497","1092.7","512.146","508.577","148.182","281.417"
"1282","284.638","141.486","325.471","687.969","1092.27","509.043","508.001","148.013","281.185"
"1283","283.755","141.035","325.628","687.135","1084.68","505.446","507.358","147.563","281.09"
"1284","282.591","140.626","325.54","685.574","1080.9","501.719","506.428","147.254","280.503"
"1285","280.868","140.344","325.543","683.457","1077.31","498.017","505.097","146.964","279.727"
"1286","278.758","139.638","325.868","680.748","1073.81","495.312","503.356","147.015","279.177"
"1287","275.923","138.864","325.741","678.267","1070.15","493.268","501.274","147.061","278.704"
"1288","273.307","137.106","325.513","677.017","1067.55","492.121","499.675","147.826","279.203"
"1289","271.985","135.586","325.553","676.672","1066.3","491.843","499.682","148.238","278.865"
"1290","271.247","134.272","325.804","677.247","1066.6","492.99","498.608","148.698","280.022"
"1291","271.198","133.905","326.793","678.658","1068.76","495.368","499.293","149.717","281.522"
"1292","271.968","134.141","328.426","681.377","1073.18","499.198","502.059","150.968","283.688"
"1293","273.687","134.619","330.973","684.433","1082.49","504.283","506.049","152.305","286.246"
"1294","276.393","136.219","333.99","690.467","1088.47","510.523","510.998","153.63","290.997"
"1295","280.299","137.753","337.97","688.605","1097.23","517.599","517.11","155.546","294.353"
"1296","284.81","139.706","343.136","705.075","1117.66","530.536","523.739","157.331","299.924"
"1297","289.862","141.555","349.715","723.216","1139.93","543.548","528.108","159.584","303.632"
"1298","295.274","143.48","355.078","743.5","1163.3","556.42","532.29","161.49","310.315"
"1299","299.862","144.246","359.646","764.605","1184.67","568.493","537.185","163.06","317.419"
"1300","304.442","145.475","363.034","782.231","1204.75","579.309","541.64","164.041","324.932"
"1301","308.833","145.823","365.32","798.432","1221.55","589.871","544.004","164.165","327.642"
"1302","312.518","146.186","366.389","799.72","1238.59","589.733","543.422","163.442","328.953"
"1303","313.35","146.07","366.24","797.9","1232.3","587.67","542.39","162.66","328.21"
"1304","313.41","145.56","365.37","779.86","1221.71","576.28","540.18","161.79","324.96"
"1305","311.79","144.59","361.14","761.82","1203.94","562.68","536.75","160.37","319.8"
"1306","309.33","142.87","356.48","742.85","1183.01","548.54","532.2","158.45","312.72"
"1307","305.96","141.11","351.86","724.15","1160.74","534.42","527","156.17","306.33"
"1308","301.68","139.26","346.68","706.76","1138.05","520.48","520.82","154.05","300.33"
"1309","296.31","137.36","341.14","690.39","1115.59","507.05","513.24","151.57","294.56"
"1310","290.31","135.67","335.59","679","1095.29","496.15","505.82","148.99","288.81"
"1311","284.04","134.19","330.22","670.3","1076.13","489.73","498.58","146.31","283.23"
"1312","278.27","132.96","325.27","663.54","1057.82","484.7","492.05","143.78","277.99"
"1313","273.21","131.99","320.92","658.15","1040.74","480.56","486.49","141.38","273.49"
"1314","269.08","131.53","317.09","653.86","1031.82","477.48","482.07","139.4","271.18"
"1315","270.7","131.45","313.77","650.78","1026","475.67","478.75","138.02","268.96"
"1316","270.93","131.67","311.01","648.74","1020.84","475.27","476.15","136.93","266.72"
"1317","270.5","131.89","308.84","647.6","1016.02","475.16","474.11","136.25","264.56"
"1318","269.78","132.14","307.29","647.26","1011.59","474.59","472.44","136.28","262.68"
"1319","268.93","132.33","306.27","647.58","1007.46","473.68","471.32","136.58","261.07"
"1320","267.96","132.42","305.77","648.08","1004.11","472.53","470.8","137.06","259.85"
"1321","266.96","132.29","305.62","649.09","1001.64","471.25","470.71","137.58","258.81"
"1322","265.95","131.93","305.64","650.29","999.92","469.82","470.89","138.35","257.82"
"1323","264.85","131.51","305.72","650.96","998.8","468.31","471.21","139.12","256.93"
"1324","263.72","130.68","305.74","651.07","998.19","466.99","471.61","139.56","256.26"
"1325","262.61","129.78","305.54","650.53","998.01","466.02","471.64","139.66","255.58"
"1326","261.55","128.7","305.12","648.99","998.15","465.57","471.24","139.58","255.19"
"1327","260.58","127.51","304.47","646.69","998.39","465.44","470.66","139.63","255.05"
"1328","259.69","126.21","303.57","643.82","998.84","465.61","470.01","139.28","254.62"
"1329","258.97","125.15","302.52","640.63","999.41","465.46","469.41","138.14","253.72"
"1330","258.42","124.34","301.38","637.5","999.64","464.77","468.83","136.65","252.66"
"1331","258.29","123.73","300.15","634.32","998.89","463.73","468.2","134.97","251.56"
"1332","258.47","123.54","298.69","630.99","997.01","462.45","467.49","133.63","250.39"
"1333","258.65","123.3","297.1","627.44","993.48","460.91","466.66","132.37","249.4"
"1334","258.54","123.38","295.41","622.95","988.04","459.18","464.77","131.09","248.29"
"1335","257.56","123.35","293.68","618.33","980.72","457.27","462.33","129.8","247.34"
"1336","256.23","123.35","291.99","614.07","971.52","455.25","459.64","128.67","246.25"
"1337","254.7","123.33","290.41","610.34","961.88","453.03","456.99","127.86","245.52"
"1338","253.05","123.29","288.94","607.14","952.85","450.64","454.67","127.57","245.17"
"1339","251.29","123.03","287.63","604.54","944.5","447.93","452.66","128.68","244.96"
"1340","249.41","122.55","286.51","602.45","937.14","445.09","450.94","129.26","245.22"
"1341","247.59","122.05","285.62","600.9","931.11","442.38","449.5","129.55","245.62"
"1342","246.02","121.53","284.92","600.04","926.69","439.95","448.42","129.71","246.33"
"1343","244.82","121.18","284.41","599.72","924.04","438.63","447.14","129.71","246.89"
"1344","244.2","120.98","284.2","599.94","923.92","438.07","445.86","129.8","247.27"
"1345","244.46","121.06","284.34","600.5","925.63","438.07","444.61","129.77","247.5"
"1346","245.25","121.04","284.87","601.29","928.21","438.43","443.71","129.04","247.68"
"1347","246.38","121.12","285.59","601.88","931.06","438.93","443.06","128.81","247.7"
"1348","247.4","121.07","286.39","602.36","933.98","439.37","442.65","128.77","247.35"
"1349","248.3","120.97","287.17","602.63","937.23","439.69","442.44","128.85","246.94"
"1350","249.06","120.76","287.86","602.55","940.53","439.81","442.4","129.07","246.19"
"1351","249.53","120.6","288.3","602.2","943.61","440.04","442.49","129.4","245.25"
"1352","249.72","120.46","288.46","601.42","946.24","440.3","442.42","129.65","244.18"
"1353","249.64","120.35","288.41","600.41","948.07","440.61","442.39","129.75","243.12"
"1354","249.33","120.48","288.1","599.31","948.63","440.93","442.21","129.86","241.97"
"1355","248.82","120.55","287.42","598.93","948.4","441.25","441.31","129.7","241.09"
"1356","248.14","120.62","286.35","598.99","947.51","441.47","440.16","129.4","240.35"
"1357","247.39","120.54","285.01","599.41","946.04","441.53","439.05","129.09","239.96"
"1358","246.43","120.25","283.5","599.7","944.1","441.33","438.19","128.5","240.2"
"1359","245.43","119.68","281.97","600.05","942.02","440.89","437.75","127.72","240.62"
"1360","244.41","118.91","280.62","600.15","939.81","440.26","437.79","126.79","241.19"
"1361","243.42","118","279.53","599.14","937.49","439.51","438.33","125.9","241.57"
"1362","242.43","117.23","278.82","600","935.07","438.67","439.34","124.97","241.48"
"1363","241.88","116.54","278.4","600.73","932.86","437.62","440.68","124.27","241.14"
"1364","241.93","115.83","278.15","600.63","930.94","436.71","440.82","123.84","240.7"
"1365","242.22","115.26","278.19","600.66","929.25","435.92","440.3","123.7","239.93"
"1366","242.65","114.59","278.36","600.5","927.72","435.23","439.2","123.74","238.9"
"1367","243.09","113.97","278.58","599.8","926.21","434.54","437.58","123.89","237.68"
"1368","243.4","113.44","278.76","598.33","924.58","433.8","435.65","124.04","236.39"
"1369","243.63","113.21","278.74","596.12","922.64","432.99","433.6","124.19","235.35"
"1370","243.77","113.2","278.49","593.17","920.2","432.09","431.55","124.34","234.41"
"1371","243.83","113.47","278.02","589.76","917.34","431.05","429.55","124.54","233.75"
"1372","243.76","113.73","277.33","586.03","914","429.87","428.22","124.71","233.45"
"1373","243.52","114.03","276.27","582.55","910.22","428.55","427.3","125.04","233.15"
"1374","243.11","114.7","274.74","579.25","905.83","427.01","426.95","125.42","232.53"
"1375","242.39","115.54","272.89","576.13","900.98","425.2","427.02","125.71","231.56"
"1376","241.39","116.29","270.85","573.12","895.85","423.18","427.38","125.92","230.43"
"1377","240.2","116.78","268.75","569.99","890.54","421.03","427.84","125.9","229.15"
"1378","238.83","117.13","266.6","566.75","885.46","418.74","426.11","125.75","227.82"
"1379","237.36","117.12","264.8","563.86","880.94","416.36","423.53","125.4","226.53"
"1380","235.83","116.9","263.43","561.53","877.03","413.92","420.71","124.82","225.39"
"1381","234.27","116.51","262.39","559.68","873.5","411.48","418.02","124.08","224.19"
"1382","232.97","115.97","261.57","558.3","870.39","409.23","415.61","123.35","222.98"
"1383","231.84","115.37","260.98","557.56","867.41","407.17","413.61","122.68","221.77"
"1384","230.86","114.74","260.53","557.18","864.54","405.26","411.46","121.88","220.37"
"1385","229.95","114.3","260.06","556.89","861.66","403.5","409.31","120.93","219.02"
"1386","229","114.51","259.47","556.62","859.05","401.94","407.28","119.78","217.9"
"1387","227.96","114.42","258.78","556.2","856.85","400.62","405.46","118.79","217"
"1388","226.7","114.25","258.22","555.7","855.12","399.48","403.9","117.66","216.62"
"1389","225.18","113.82","257.76","555.07","854.13","398.6","402.65","116.64","217.09"
"1390","223.56","113.38","257.43","554.4","853.84","397.93","401.69","115.76","217.63"
"1391","221.99","113.04","257.23","553.64","854.05","397.43","401.06","115.13","218.1"
"1392","220.51","112.82","257.13","552.81","854.52","397.05","400.79","114.73","218.59"
"1393","219.36","112.7","257.09","552.03","855.08","396.86","400.94","114.46","219.07"
"1394","218.56","113.04","257.04","551.29","855.41","396.86","401.55","114.19","219.51"
"1395","218.13","113.29","257.02","550.68","855.64","397.06","402.62","114.17","219.98"
"1396","218.18","113.47","257.02","550.27","855.68","397.39","403.98","114.6","220.86"
"1397","218.53","113.65","257.06","549.77","855.88","397.85","405.51","115.34","221.68"
"1398","219.16","113.86","257.15","549.48","856.31","398.29","406.98","116.29","222.41"
"1399","219.93","113.87","257.3","549.48","857.01","398.76","408.32","116.99","222.87"
"1400","220.8","113.77","257.48","549.66","858.1","399.27","409.48","117.56","223.16"
"1401","221.52","113","257.8","549.93","859.27","399.75","410.21","117.92","223.03"
"1402","222.1","112.65","258.24","550.38","860.46","400.23","409.9","118.39","222.87"
"1403","222.46","112.57","258.8","551.01","861.49","400.98","409.19","118.81","222.4"
"1404","222.39","112.76","259.5","551.8","862.13","401.95","408.4","118.84","221.8"
"1405","222.11","113.11","260.3","552.81","862.45","403.21","407.85","118.94","221.48"
"1406","221.65","113.42","261.26","553.9","862.85","404.65","407.7","119.19","221.13"
"1407","221.32","113.94","262.39","555.13","863.42","406.25","408.11","119.55","220.82"
"1408","221.66","114.75","263.64","556.5","864.28","407.91","409.03","119.92","220.82"
"1409","222.57","115.39","265.01","558.09","866.05","409.64","410.38","120.43","221.06"
"1410","223.97","116.02","266.48","559.91","868.83","411.32","411.79","121.07","221.73"
"1411","225.64","116.62","268.03","562.01","872.36","413.03","413.44","121.77","222.49"
"1412","227.58","117.35","269.61","564.89","876.24","414.76","415.37","122.5","223.24"
"1413","231.16","117.9","271.22","567.99","880.23","416.53","417.56","123.13","223.93"
"1414","230.2","118.38","272.72","570.96","883.7","418.32","419.86","123.83","224.41"
"1415","227.85","118.44","274.12","573.41","886.92","420.31","422.19","124.61","224.92"
"1416","233.98","118.31","275.26","575.37","889.64","422.35","424.43","125.28","225.49"
"1417","240.45","117.99","275.85","576.8","891.64","424.38","426.38","125.63","226.08"
"1418","244.18","117.28","275.92","577.58","892.82","425.2","427.84","125.58","226.65"
"1419","243.59","116.31","275.56","577.69","893.1","425.04","428.42","125.08","226.59"
"1420","241.88","115.24","274.81","576.74","892.26","424.06","428.12","124.34","226.37"
"1421","240.07","114.27","273.73","574.79","889.62","422.35","426.91","123.47","224.95"
"1422","238.34","113.57","272.39","571.93","885.59","420.09","424.79","122.48","223.62"
"1423","236.8","112.95","270.83","568.18","880.58","417.13","421.46","121.4","221.72"
"1424","234.56","112.56","269.07","563.68","874.9","413.63","417.59","120.33","219.16"
"1425","232.32","111.94","267.17","558.76","869.13","409.82","413.57","119.1","215.67"
"1426","230.13","111.3","265.17","554","863.4","405.92","409.75","118.08","212.83"
"1427","228.2","110.92","263.17","549.31","857.39","402.11","406.5","116.97","209.98"
"1428","226.5","110.55","261.31","544.88","851.22","398.63","403.86","115.97","208.92"
"1429","225.02","110.23","259.81","540.93","844.98","395.63","401.87","115.15","209.31"
"1430","223.88","110.2","258.58","537.7","838.81","393.22","400.41","114.68","210.54"
"1431","222.95","110.1","257.57","535.24","832.88","391.25","399.61","114.14","213.56"
"1432","222.15","110.01","256.7","533.42","827.47","389.62","399.26","113.36","216.14"
"1433","221.46","110","255.78","531.91","822.56","388.29","398.91","112.81","218.09"
"1434","220.82","109.72","254.84","531","818.5","387.11","398.09","112.54","219.33"
"1435","216.98","109.19","253.64","530.14","815.46","385.85","397.05","112.58","218.42"
"1436","217.42","108.54","252.16","529.08","813.1","384.46","395.91","112.59","216.83"
"1437","218.04","108.09","250.47","527.66","811.46","382.84","394.71","112.73","215.4"
"1438","218.1","107.64","248.7","525.81","810.41","381.22","393.52","112.93","214.98"
"1439","217.84","107.41","246.96","523.6","809.77","379.58","392.07","112.84","214.33"
"1440","217.45","107.2","245.33","521.16","809.41","378","390.22","113.01","213.47"
"1441","216.94","107.3","243.86","518.6","809.28","376.45","388.26","113.05","212.36"
"1442","216.36","107.48","242.85","515.76","809.54","375.01","386.31","112.74","211.11"
"1443","215.75","107.84","242.22","512.97","809.83","373.72","384.45","112.16","209.92"
"1444","215.14","108.25","241.72","510.52","809.94","372.52","382.79","111.42","208.65"
"1445","214.54","108.7","241.33","508.93","809.04","371.51","381.83","110.51","207.2"
"1446","213.95","109.19","240.98","508.21","806.67","370.67","381.2","109.67","205.9"
"1447","213.38","109.83","240.61","508.12","803.21","370.3","380.98","108.66","204.8"
"1448","212.84","110.12","240.23","508.28","798.87","370.31","380.84","107.9","204.16"
"1449","212.3","110.19","239.82","508.62","793.88","370.58","380.21","106.98","203.76"
"1450","211.76","109.82","239.35","509.08","788.66","370.97","378.71","106.2","203.66"
"1451","211.22","108.89","238.81","509.47","783.68","371.41","376.62","105.21","203.87"
"1452","210.69","107.67","238.22","509.94","778.94","371.76","374.53","104.75","204.02"
"1453","210.15","106.5","237.45","510.34","774.7","372.02","372.36","104.91","204.01"
"1454","209.59","105.15","236.61","510.41","771.05","372.21","371.27","105.64","203.85"
"1455","208.95","103.84","235.79","509.89","768.03","372.23","371.68","106.64","203.71"
"1456","208.03","102.76","234.98","509.28","765.65","372.09","372.74","107.51","203.56"
"1457","206.88","101.75","234.34","509.48","763.85","371.84","374.09","108.28","203.46"
"1458","205.75","100.85","234.03","510.26","762.66","371.47","375.45","108.91","203"
"1459","204.85","100.11","234.05","511.36","762.29","370.98","376.68","109.37","202.64"
"1460","204.84","99.61","234.44","512.5","762.78","370.18","377.62","109.81","202.59"
"1461","205.5","99.51","235.23","513.65","764.11","369.11","378.06","110.13","202.74"
"1462","206.61","99.66","236.39","514.76","766.24","367.93","377.5","109.86","203.01"
"1463","207.88","100.14","237.9","515.86","769.03","366.64","376.19","109.49","203.32"
"1464","209.15","100.84","239.59","516.89","772.23","365.42","374.56","110.91","203.57"
"1465","210.31","101.75","241.55","517.87","775.72","364.73","373.28","112.57","203.66"
"1466","211.32","102.73","243.62","518.79","779.52","364.49","372.95","113.09","203.99"
"1467","212.18","103.38","245.57","519.57","783.58","364.86","373.23","113.02","204.09"
"1468","212.81","103.56","247.44","520.23","787.57","365.71","373.96","112.6","204.36"
"1469","213.24","103.52","248.87","520.69","791.17","366.91","374.7","111.92","204.92"
"1470","213.38","103.52","249.95","520.72","793.84","368.31","375.25","111.07","205.28"
"1471","213.29","103.49","250.26","520","795.66","369.67","375.9","110.03","205.56"
"1472","212.83","103.6","249.83","519.15","796.6","370.78","376.53","108.62","205.4"
"1473","212.08","103.81","248.74","517.8","796.39","371.62","377.07","107.37","205.06"
"1474","211.06","104.09","247.39","516.1","794.98","372.18","377.49","106.7","204.29"
"1475","209.85","104.14","246.07","514.27","792.47","372.36","377.74","106.03","203.44"
"1476","208.55","104.19","244.59","512.73","788.21","372.18","376.92","105.83","202.02"
"1477","207.19","104.04","243.08","511.54","782.96","371.43","375.17","106.1","200.72"
"1478","206.1","103.86","241.58","510.38","777.23","370.09","373.15","105.87","199.36"
"1479","205.17","103.73","240.12","508.79","772.49","368.34","370.92","105.28","198.57"
"1480","204.29","103.72","238.72","506.84","768.08","366.36","368.51","104.16","198.06"
"1481","203.19","103.76","237.47","505.07","764.15","364.28","366.11","103.28","197.78"
"1482","201.97","103.86","236.37","503.53","760.9","362.38","363.77","102.56","198.11"
"1483","200.8","104.18","235.41","501.45","758.37","360.89","361.81","102.02","198.77"
"1484","199.79","104.19","234.66","499.46","756.61","359.73","360.31","101.6","199.8"
"1485","199.06","104.62","234.11","498.28","755.69","359.08","359.37","101.37","200.45"
"1486","198.84","104.1","233.73","497.84","755.66","358.72","359.16","101.46","200.98"
"1487","199.02","103.21","233.52","497.9","756.54","358.77","359.54","101.7","201.25"
"1488","199.63","102.14","233.55","498.48","758.5","359.3","360.49","102.04","201.56"
"1489","200.59","101.17","233.88","498.85","761.3","360.38","362.02","102.67","202.01"
"1490","202.06","100.37","234.55","499.81","765.21","362.14","364.1","103.77","202.38"
"1491","204.03","99.71","235.56","501.97","770.05","364.74","366.73","104.95","202.3"
"1492","206.26","99.43","237.01","505.45","775.9","368.34","369.83","106.25","202.26"
"1493","208.76","99.62","238.9","510.28","782.76","372.86","373.53","107.66","202.84"
"1494","211.49","100.28","241.29","516.61","790.77","378.34","377.86","109.37","203.86"
"1495","214.38","101.33","244.15","524.43","800.03","384.61","382.82","111.18","205.61"
"1496","217.42","103.15","247.52","533.75","810.71","391.61","387.97","112.79","207.97"
"1497","220.54","105.19","251.44","544.38","823.58","399.32","392.34","114.19","211.53"
"1498","223.87","107.42","255.93","556.04","838.12","407.82","396.5","116.33","215.55"
"1499","227.44","109.71","260.92","568.43","855.17","417.37","401.39","119.08","221.15"
"1500","231.24","112.09","266.44","581.48","874.13","427.76","407.01","122.65","227.21"
"1501","235.29","114.54","272.39","595.01","892.2","438.88","413.61","126.68","233.74"
"1502","239.57","117.1","278.73","608.92","909.78","450.35","421.08","130.33","240.53"
"1503","244.11","120.01","285.4","623.21","927.7","461.83","429.15","133.8","247.55"
"1504","248.89","122.9","292.34","637.59","945.94","473.11","437.69","136.88","254.44"
"1505","253.93","125.86","299.17","651.44","964.97","483.88","445.96","138.44","260.7"
"1506","259.34","128.69","306","664.04","984.73","494.06","454.17","139.78","266.71"
"1507","264.96","131.36","312.79","675.1","1005.58","503.38","462.13","140.94","272.27"
"1508","270.73","133.57","319.77","684.6","1023.2","511.51","469.41","141.96","276.82"
"1509","276.56","135.4","326.32","692.97","1038.15","518.05","475.55","142.81","280.97"
"1510","282.22","136.65","331.52","699.64","1051.06","523.67","480.23","143.81","284.43"
"1511","286.91","137.49","335.07","703.49","1061.66","527.87","483.04","144.92","286.63"
"1512","290.66","138.06","336.94","704.6","1069.06","529.49","482.3","145.79","287.74"
"1513","293.12","138.47","337.18","703.4","1072","528.41","480.84","146.06","287.66"
"1514","293.35","138.15","335.84","699.59","1070.63","524.81","476.53","145.2","285.63"
"1515","292.77","137.33","332.9","693.43","1061.29","518.01","472.26","144.14","282.62"
"1516","291.41","136.25","328.47","685.23","1047.85","510.51","467.68","142.84","278.58"
"1517","288.92","134.72","322.39","675.41","1031.9","501.3","462.66","141.18","273.53"
"1518","285.31","132.72","315.02","664.17","1014.39","490.93","457.25","139.09","268.09"
"1519","274.89","130.44","308.15","651.55","995.89","479.84","451.25","136.77","262.44"
"1520","269.23","127.92","301.55","637.99","976.9","468.5","444.53","134.24","256.36"
"1521","265.83","125.36","295.04","624.14","957.96","457.22","436.08","131.23","249.81"
"1522","261.91","122.86","288.7","610.3","939.18","446.01","426.71","128.4","243.36"
"1523","256.2","120.57","282.51","596.47","920.08","435.04","416.84","125.78","236.63"
"1524","249.47","118.52","276.54","583.19","901.07","424.59","407.44","123.37","230.37"
"1525","242.53","116.69","270.76","570.65","884.96","415.93","399.09","121","224.37"
"1526","235.87","114.56","265.07","559.22","873.38","409.7","393.22","118.74","219.29"
"1527","229.78","112.28","259.67","549.26","865.41","405.29","387.78","116.55","215.43"
"1528","224.41","109.96","254.63","540.83","860.29","402.56","382.92","114.76","212.24"
"1529","219.79","107.82","250.12","533.94","857.65","401.32","376.99","113.14","209.68"
"1530","215.82","106.07","246.15","528.62","857.37","401.58","371.77","111.88","207.77"
"1531","212.52","104.8","242.82","524.89","859.4","403.38","367.74","110.93","206.43"
"1532","210","103.83","240.09","522.49","863.89","406.56","364.84","110.2","205.37"
"1533","208.29","103.09","238.08","520.88","870.61","410.85","363.02","109.62","204.63"
"1534","207.26","102.38","236.77","519.87","879.06","416.07","362.19","109.33","204.29"
"1535","206.87","101.75","236.16","519.27","889.01","421.55","362.34","109.22","204.76"
"1536","206.95","101.08","236.03","519.13","898.71","426.89","363.8","109.07","205.2"
"1537","207.46","100.37","236.36","519.03","909.65","432.6","363.09","108.84","205.41"
"1538","208.16","99.75","237.29","518.34","920.11","438.42","361.08","108.44","205.57"
"1539","208.77","99.3","238.52","516.98","929.45","443.36","358.4","107.82","205.68"
"1540","209.13","98.96","239.53","515.02","937.47","447.09","355.4","106.86","205.52"
"1541","208.95","98.84","239.16","512.36","944.17","449.48","352.48","105.72","205.35"
"1542","208.07","98.92","238.06","508.73","949.48","450.86","349.89","104.57","205.12"
"1543","206.62","98.66","236.43","504.52","953.27","451.31","347.61","103.22","204.59"
"1544","204.73","98.33","234.48","500.22","955.72","451.13","345.62","101.77","204.04"
"1545","202.56","97.82","232.28","495.92","957.61","450.17","343.99","100.26","203.13"
"1546","200.27","97.1","230.25","491.73","959.56","448.77","342.77","98.74","202.18"
"1547","197.94","96.3","228.09","487.71","961.82","447.25","341.27","97.15","201.14"
"1548","195.58","95.3","225.99","483.75","964.49","445.91","338.8","95.56","199.88"
"1549","193.24","94.21","223.96","479.95","967.66","445.26","336.13","94.24","198.38"
"1550","191.01","93.19","222.12","476.36","971.55","445.52","333.29","93.83","196.54"
"1551","189.28","92.22","220.82","472.98","976.23","446.57","330.55","93.11","194.63"
"1552","187.99","91.51","220.45","469.85","981.6","448.4","328.04","92.32","192.58"
"1553","187.03","90.82","220.23","466.85","987.9","451.03","325.83","91.56","190.93"
"1554","186.42","90.1","219.98","464","995.13","454.43","323.94","90.7","189.23"
"1555","186.05","89.3","219.36","461.37","1003.41","458.37","322.51","89.85","187.45"
"1556","185.85","88.55","218.56","458.99","1012.04","462.56","321.42","89.09","185.32"
"1557","185.78","87.92","217.54","456.79","1020.93","466.79","320.69","88.34","183.29"
"1558","185.73","87.32","216.44","454.83","1030","470.97","320.33","87.68","181.72"
"1559","185.66","86.79","215.14","453.24","1039.47","475.03","319.38","87.16","180.49"
"1560","185.5","86.28","213.84","452.01","1049.17","478.97","318.2","86.8","179.58"
"1561","185.11","85.85","212.54","451.02","1058.95","482.89","317.2","86.63","178.99"
"1562","184.5","85.46","211.38","450.21","1068.64","486.73","316.42","86.28","178.98"
"1563","183.7","85.08","210.3","449.56","1078.33","490.36","315.99","85.91","179.34"
"1564","182.72","84.83","209.32","449.08","1088.36","493.82","315.78","85.72","180.01"
"1565","181.57","84.6","208.57","448.77","1098.79","497.22","315.59","85.73","180.69"
"1566","180.37","84.46","208.09","448.66","1109.61","500.67","315.28","85.84","181.52"
"1567","179.26","84.16","207.62","448.91","1120.94","504.17","314.77","85.79","182.15"
"1568","178.22","83.68","206.99","449.28","1132.63","507.73","314.06","85.56","182.61"
"1569","177.19","83.34","206.08","449.73","1144.22","511.41","313.06","85.17","182.9"
"1570","176.28","83.19","205.32","450.34","1155.79","514.96","312.09","84.66","183.19"
"1571","175.52","83.15","204.94","451.02","1167.18","518.57","311.33","83.99","183.42"
"1572","175.17","83.26","205.17","451.81","1178.06","522.22","310.53","83.22","183.35"
"1573","175.12","83.63","205.78","452.65","1188.63","526.06","309.56","82.28","183.34"
"1574","175.35","84.21","206.63","453.71","1199.07","530.13","308.51","81.14","183.44"
"1575","175.91","84.64","207.7","454.81","1209.13","534.18","307.51","79.99","183.49"
"1576","176.75","85.02","208.77","455.78","1218.83","537.66","306.61","78.98","183.28"
"1577","177.08","85.34","209.96","456.72","1229.03","540.8","305.87","78.08","183.06"
"1578","177.21","85.56","210.73","457.94","1240.31","544.41","305.31","77.4","182.98"
"1579","177.28","85.68","211.03","459.34","1250.76","548.22","304.95","77.04","183.06"
"1580","177.35","85.71","210.82","460.32","1260.21","552.57","304.82","76.8","183.35"
"1581","176.69","85.67","210.66","460.9","1269.1","557.44","304.92","76.83","183.84"
"1582","176.41","85.72","211.02","461.47","1277.7","562.65","305.25","76.86","184.59"
"1583","176.55","85.89","211.79","461.99","1286.28","568.67","305.78","77.11","185.4"
"1584","177.19","85.98","212.68","462.57","1295.12","574.72","306.45","77.29","186.32"
"1585","178.16","85.94","213.63","463.44","1304.53","580.76","307.25","77.36","187.33"
"1586","179.1","85.9","214.48","464.57","1314.61","586.61","308.15","77.49","188.43"
"1587","179.86","85.38","215.22","466.04","1326.42","592.32","309.16","77.64","189.74"
"1588","180.55","86.6","216.11","467.77","1339.91","597.85","310.25","77.78","191.28"
"1589","181.33","88.41","217.13","469.64","1355.11","603.16","311.4","78.02","193.14"
"1590","182.14","89.51","218.24","471.16","1370.92","608.14","312.71","78.31","195.07"
"1591","182.95","90.29","219.45","472.72","1386.92","612.86","314.26","78.53","196.85"
"1592","183.63","90.9","220.71","474.48","1402.29","617.59","315.87","78.63","198.47"
"1593","184.12","91.45","221.94","476.27","1416.43","622.47","317.51","78.61","200.04"
"1594","184.38","91.92","222.98","478.22","1428.98","627.54","319.04","78.54","201.56"
"1595","184.38","92.35","223.69","480.4","1440.73","632.72","320.47","78.53","202.84"
"1596","184.19","92.6","224.1","482.66","1452.06","637.97","321.81","78.69","203.91"
"1597","183.83","92.72","223.96","484.68","1463.13","643.11","322.78","78.91","204.81"
"1598","183.31","92.68","223.57","486.28","1473.42","647.42","323.32","79.06","205.36"
"1599","182.66","92.54","223.28","487.08","1482.87","651.12","323.15","79.25","205.56"
"1600","181.82","92.29","223.08","487.46","1491.96","655.1","322.32","79.34","205.28"
"1601","181.13","91.76","222.82","487.34","1500.48","659.23","321.28","79.25","204.5"
"1602","180.86","91.22","222.4","487.09","1508.01","663.02","320.27","79.08","203.43"
"1603","180.66","90.74","221.91","487.11","1514.79","667.01","319.59","78.89","202.19"
"1604","180.66","90.23","221.3","487.12","1521.59","670.32","319.17","78.57","200.93"
"1605","181.17","89.55","220.49","486.78","1528.18","673.28","318.94","78.19","199.7"
"1606","181.7","88.8","219.49","486.56","1534.21","674.87","318.75","77.83","198.77"
"1607","181.99","88.14","218.64","486.11","1541.85","675.6","318.52","77.49","198.06"
"1608","182.3","87.58","218.01","485.51","1549.02","675.17","317.89","77.12","197.51"
"1609","182.45","87.15","217.51","484.67","1555.89","673.53","317.14","76.7","197.15"
"1610","182.48","86.92","217.03","483.42","1562.72","671.48","316.48","76.18","196.85"
"1611","182.27","86.94","216.51","482.03","1569.4","670.4","314.99","75.55","196.56"
"1612","181.91","87.08","216.04","480.98","1576.64","670.68","313.05","74.85","196.26"
"1613","181.31","87.24","215.48","479.69","1584.9","672.51","310.94","74.19","195.91"
"1614","180.43","87.32","214.93","478.37","1593.5","675.8","308.85","73.65","195.61"
"1615","179.42","87.36","214.42","477.15","1602.42","680.64","306.6","73.25","195.31"
"1616","178.21","87.3","213.82","476.31","1611.75","687.81","303.98","72.88","195.02"
"1617","176.77","87.14","212.98","475.74","1621.28","695.46","301.73","72.43","194.76"
"1618","175.13","86.84","212.06","475.24","1631.05","702.02","300.08","71.99","194.51"
"1619","173.56","86.39","211.45","474.89","1640.82","707.88","298.97","71.6","194.25"
"1620","172.34","85.89","211.14","474.8","1650.65","713.28","298.21","71.22","193.98"
"1621","171.24","85.36","210.75","474.97","1660.89","718.37","297.53","70.92","193.71"
"1622","170.31","84.83","210.26","475.38","1671.53","723.06","296.83","70.69","193.41"
"1623","169.75","84.27","209.76","476.14","1682.95","727.58","296.08","70.57","193.1"
"1624","169.45","83.73","209.38","477.02","1694.7","732.18","295.42","70.53","192.79"
"1625","169.43","83.24","209.11","477.99","1709.4","736.63","294.91","70.54","192.43"
"1626","169.47","82.77","208.92","479.34","1725.61","740.54","294.62","70.63","192.05"
"1627","169.83","82.36","208.97","480.93","1725.7","744.13","294.49","70.77","191.65"
"1628","170.39","81.94","209.38","482.18","1723.69","747.33","294.48","70.89","191.25"
"1629","171.47","81.51","209.65","483.07","1719.61","750.34","294.47","71","190.87"
"1630","172.55","81.09","209.99","482.85","1718.07","751.43","294.36","71.11","190.42"
"1631","173.16","80.66","210.15","481.12","1717.57","750.54","294.1","70.94","189.82"
"1632","173.26","80.23","210.3","478.33","1718.57","748.45","293.73","70.51","189.19"
"1633","173.24","79.76","210.39","475.42","1721.85","746.1","293.25","69.97","188.56"
"1634","172.98","79.27","210.24","471.69","1725.67","743.3","292.9","69.34","187.93"
"1635","172.57","78.68","209.96","468.21","1727.09","740.2","292.65","68.47","187.35"
"1636","172.21","77.94","209.7","465.48","1728.9","737.6","292.4","67.65","186.92"
"1637","171.96","77.26","209.3","463.51","1728.16","734.87","292.13","66.91","186.56"
"1638","171.81","76.73","208.95","461.77","1727.58","732.03","291.76","66.35","186"
"1639","171.44","76.38","208.75","459.94","1725.32","729.12","291.14","65.81","185.5"
"1640","170.98","76.23","208.37","458.52","1723.47","725.94","290.25","65.26","185.09"
"1641","170.59","76.26","207.65","457.66","1719.85","723.24","289.28","64.95","185.13"
"1642","170.15","76.47","206.9","457.67","1715.71","720.91","288.3","64.73","185.24"
"1643","169.74","77.01","206.32","458.11","1711.54","719.54","287.4","64.63","185.44"
"1644","169.38","77.76","205.86","459.86","1707.61","719.08","287.04","64.63","185.64"
"1645","169.15","78.16","205.5","461.94","1702.91","718.91","286.96","64.68","185.64"
"1646","168.78","78.2","204.99","464.23","1697.47","718.27","286.89","64.8","185.36"
"1647","168.42","78.08","204.76","466.44","1693.08","717.7","286.68","64.95","185.07"
"1648","168.05","78.04","204.66","467.73","1690.14","717.75","286.3","65.29","184.85"
"1649","167.43","77.89","204.16","468.71","1687.87","718","285.78","65.6","184.72"
"1650","166.68","77.68","203.5","468.93","1686.61","718.06","285.21","65.68","185.22"
"1651","166.09","77.33","202.71","468.36","1686.05","718.66","284.61","65.83","185.44"
"1652","165.72","76.88","201.74","467.4","1685.7","718.77","283.92","65.79","185.32"
"1653","165.51","76.27","200.63","466.25","1684.98","718.46","283.15","65.72","184.22"
"1654","165.03","75.58","199.48","465.16","1684.28","717.96","282.4","65.61","183.35"
"1655","164.35","75","198.53","463.69","1683.61","716.78","281.75","65.26","182.54"
"1656","163.64","74.59","197.79","461.85","1682.59","715.92","281.4","64.8","181.69"
"1657","162.95","74.38","197.28","460.22","1680.7","714.77","281.19","64.23","180.87"
"1658","162.75","74.42","197.03","458.8","1677.9","713.94","281.1","63.62","180.09"
"1659","162.63","74.77","196.55","457.61","1672.25","713.74","281.09","63.09","179.26"
"1660","162.62","75.12","196.3","456.95","1667.81","714.48","281.11","62.76","177.93"
"1661","162.78","75.44","196.1","457.02","1663.59","716.54","281.11","62.68","176.57"
"1662","163.14","75.78","195.65","456.88","1659.39","718.8","281.1","62.64","175.6"
"1663","163.14","76.13","195.28","456.96","1654.74","720.69","280.9","62.65","175.06"
"1664","162.06","76.34","194.65","457.26","1650.02","721.37","280.5","62.65","174.75"
"1665","161.29","76.46","193.98","457.93","1644.78","721.13","280.19","62.83","174.86"
"1666","160.87","76.62","193.32","458.51","1639.85","720.33","279.97","63.15","175.2"
"1667","160.55","76.82","192.33","459.07","1636.01","718.84","279.92","63.69","175.66"
"1668","160.35","77.01","191.34","458.93","1632.24","715.37","279.89","64.48","176.13"
"1669","160.14","76.85","190.09","458.64","1628.42","711.96","279.76","65.29","176.53"
"1670","160.15","76.9","189.28","458.38","1624.68","708.86","279.52","66.18","176.79"
"1671","160.68","76.99","188.98","457.74","1621.09","705.15","279.18","66.93","176.86"
"1672","161.56","77.01","189.3","456.63","1617.3","701.5","278.66","67.55","176.79"
"1673","162.61","76.99","190.05","454.09","1613.97","698.91","278.02","68.04","176.64"
"1674","163.47","77.11","191.11","452.55","1610.91","696.89","277.37","68.3","176.26"
"1675","163.84","77.22","192.69","451.69","1608.18","695.07","277.18","68.43","175.75"
"1676","163.73","77.14","194.71","451.67","1606.06","694.56","277.11","68.38","175.15"
"1677","163.32","76.69","196.58","451.99","1604.43","694.51","276.98","68.14","174.83"
"1678","162.83","76.35","197.69","452.65","1603.03","694.52","276.56","67.79","175.09"
"1679","162.24","76","197.77","453.28","1601.93","695.2","275.89","67.26","175.65"
"1680","161.34","75.76","197.82","453.76","1601.71","695.19","274.95","66.83","176.25"
"1681","160.16","75.53","197.57","453.72","1600.76","695.14","273.86","66.59","176.81"
"1682","158.91","75.14","195.99","453.25","1598.62","694.72","272.72","66.37","177.25"
"1683","157.82","74.75","194.85","453.93","1595.95","693.98","271.61","66.19","177.53"
"1684","156.87","74.4","193.73","453.82","1593.32","692.7","270.65","66.24","177.57"
"1685","156.37","74.15","192.78","452.75","1591.07","690.42","269.84","66.36","177.28"
"1686","156.95","73.98","191.8","450.85","1587.92","687.36","269.27","66.31","176.66"
"1687","157.16","73.86","190.85","448.31","1586.21","683.5","268.95","65.88","175.71"
"1688","157","73.76","189.76","444.87","1586.42","679.2","268.75","65.24","174.66"
"1689","156.38","73.6","189.06","440.74","1587.08","676.18","268.57","64.56","173.72"
"1690","155.51","73.18","188.64","437.31","1587.96","673.93","268.44","64","172.81"
"1691","154.46","72.52","188.19","434.29","1588.38","672.01","268.02","63.47","171.7"
"1692","153.24","71.93","187.95","431.62","1587.59","670.96","267.15","63.11","170.37"
"1693","151.9","71.39","187.58","429.11","1584.98","670.27","266.09","62.68","168.96"
"1694","150.77","70.91","186.88","427.23","1581.74","670.22","264.92","62.38","167.55"
"1695","149.71","70.45","185.9","425.75","1578.49","669.79","263.67","62.12","166.28"
"1696","148.59","70","184.57","424.8","1574.92","668.84","262.4","61.69","165.28"
"1697","147.62","69.49","183.09","425.02","1571.83","667.79","261.22","61.18","164.61"
"1698","146.57","68.96","181.78","424.75","1567.67","666.36","260.08","60.61","164.42"
"1699","145.78","68.5","180.63","424.37","1562.2","665.05","259.03","60.13","164.48"
"1700","145.01","68.06","179.68","423.98","1556.25","663.83","257.99","59.74","164.41"
"1701","144.31","67.98","179.2","423.94","1550.26","663.12","256.95","59.69","164.24"
"1702","144.04","68.14","178.75","423.65","1544.26","662.07","255.97","59.71","164.02"
"1703","144.18","68.46","179.18","423.29","1538.34","661.45","255.12","59.79","163.73"
"1704","144.45","68.86","179.11","422.45","1535.09","661.11","254.48","59.92","163.3"
"1705","144.7","69.28","178.6","421.18","1531.97","660.02","254.49","59.97","162.79"
"1706","144.73","69.34","177.7","419.91","1528.64","658.43","254.83","60.2","162.16"
"1707","144.46","69.28","176.89","418.57","1525.2","657","255.15","60.44","161.67"
"1708","144.03","69.11","176.09","417.23","1521.63","656.23","255.3","60.65","161.47"
"1709","143.29","68.58","175.31","416.48","1518.66","655.59","255.4","60.81","161.27"
"1710","142.44","68.11","174.42","415.87","1516.79","655.48","255.28","61.03","160.89"
"1711","141.49","67.71","173.41","414.99","1515","655.42","254.67","61.23","160.41"
"1712","140.87","67.32","172.69","413.85","1512.99","654.82","253.11","61.43","159.88"
"1713","140.45","66.69","171.97","412.47","1510.82","653.93","251.34","61.45","159.14"
"1714","140.15","66.05","171.28","410.84","1509.51","652.95","249","61.44","158.32"
"1715","140.06","65.68","171.09","409.28","1508.21","651.03","247.16","61.49","157.5"
"1716","140.37","65.51","171.16","407.76","1507.2","648.53","246.26","61.37","157.05"
"1717","140.67","65.65","171.62","406.59","1506.57","646.39","248.06","60.81","157.04"
"1718","140.86","65.79","172.17","405.58","1505.9","644.05","249.63","60.39","157.33"
"1719","140.91","65.76","172.58","404.79","1504.87","642.44","250.78","60.19","157.39"
"1720","140.78","65.73","172.98","404.68","1503.86","641.48","251.48","60.15","157.15"
"1721","140.55","65.71","173.2","404.89","1502.79","640.82","251.7","60.22","156.77"
"1722","140.25","65.71","173.15","404.78","1501.47","640.88","251.51","60.4","156.29"
"1723","139.69","65.74","172.94","404.6","1500.69","640.69","250.9","60.42","155.75"
"1724","138.87","65.75","172.58","404.64","1499.53","640.04","249.83","60.31","155.19"
"1725","137.99","65.66","171.94","404.78","1497.55","638.57","248.46","60.12","154.64"
"1726","136.78","65.5","171.45","405.13","1495.1","636.95","247.25","59.65","154.15"
"1727","135.78","65.25","170.82","405.31","1492.55","635.14","246.45","59.23","153.73"
"1728","135.05","65","170.03","405.37","1489.79","633.31","245.98","58.81","153.35"
"1729","134.62","64.67","169.1","405.29","1487.48","631.93","245.36","58.49","153.06"
"1730","134.48","64.69","168.08","405.09","1485.4","630.3","244.62","58.27","152.82"
"1731","135.08","64.81","167.17","404.48","1482.6","628.65","243.86","58.23","152.65"
"1732","136.48","65.08","166.4","403.6","1479.34","627.24","243.18","58.74","152.54"
"1733","138.8","65.29","165.68","402.33","1474.84","626.29","242.73","59.06","152.48"
"1734","140.55","65.12","165.23","400.74","1469.3","625.95","242.47","59.19","152.42"
"1735","141.3","64.79","165.19","399.33","1463.55","625.97","242.47","59.18","152.51"
"1736","141.18","64.43","165.31","398.44","1457.45","626.13","242.55","59.1","152.79"
"1737","141.06","64.27","165.77","398.24","1452.52","626.98","242.5","58.86","153.19"
"1738","141.08","64.26","166.26","398.01","1448.18","627.35","241.75","58.73","153.66"
"1739","141.08","64.34","166.92","397.53","1444.56","627.46","240.6","58.42","154.15"
"1740","141.19","64.52","167.53","397.42","1442.64","627.21","239.39","58.05","154.64"
"1741","141.73","64.73","167.91","397.36","1440.95","626.26","238.17","57.52","155.1"
"1742","142.22","65","167.97","396.99","1439.29","625.38","237.02","57.16","155.34"
"1743","142.64","65.28","168.09","396.54","1437.86","624.17","235.97","56.76","155.48"
"1744","142.7","65.47","168.47","395.91","1435.5","622.95","235.05","56.39","155.46"
"1745","142.97","65.14","168.55","395.08","1432.96","621.12","234.28","55.3","155.29"
"1746","142.8","64.66","168.33","394.2","1431.64","619.22","233.67","54.25","154.97"
"1747","142.67","64.22","167.55","393.4","1431.43","617.45","233.25","53.45","154.51"
"1748","142.15","63.8","166.15","391.97","1431.7","616.41","233.01","52.88","153.75"
"1749","141.37","63.45","164.75","390.74","1431.99","616.29","233.02","52.78","152.79"
